nk
Ssil-oss1 1200. 3.6  0.588 20.077
    4.00000E-01    1.80900E+00    9.99400E-02
    5.00000E-01    1.84000E+00    7.71200E-02
    6.25000E-01    1.84600E+00    6.35600E-02
    7.69200E-01    1.85000E+00    5.73100E-02
    1.00000E+00    1.84600E+00    5.46200E-02
    1.20500E+00    1.84800E+00    6.35700E-02
    1.42900E+00    1.85800E+00    7.28900E-02
    1.66700E+00    1.86900E+00    7.22300E-02
    2.00000E+00    1.88000E+00    7.33300E-02
    2.50000E+00    1.88800E+00    6.40200E-02
    3.12500E+00    1.88800E+00    5.75200E-02
    3.70400E+00    1.88000E+00    5.33600E-02
    4.54500E+00    1.86500E+00    5.05000E-02
    5.55600E+00    1.83300E+00    5.25100E-02
    6.66700E+00    1.77800E+00    5.88300E-02
    7.50000E+00    1.70900E+00    7.06900E-02
    7.90000E+00    1.65900E+00    8.38100E-02
    8.30000E+00    1.59300E+00    1.09800E-01
    8.60000E+00    1.52300E+00    1.41400E-01
    8.80000E+00    1.47500E+00    2.02200E-01
    9.00000E+00    1.45200E+00    2.63300E-01
    9.20000E+00    1.41800E+00    3.36000E-01
    9.40000E+00    1.40400E+00    4.31000E-01
    9.60000E+00    1.43200E+00    5.17500E-01
    9.80000E+00    1.44200E+00    6.02900E-01
    1.00000E+01    1.51400E+00    7.12300E-01
    1.02000E+01    1.60100E+00    7.67000E-01
    1.04000E+01    1.68600E+00    8.01200E-01
    1.06000E+01    1.78000E+00    8.19700E-01
    1.08000E+01    1.85300E+00    8.00200E-01
    1.10000E+01    1.91200E+00    7.94200E-01
    1.12000E+01    1.96600E+00    7.88700E-01
    1.14000E+01    2.03000E+00    7.82600E-01
    1.16000E+01    2.10500E+00    7.68400E-01
    1.18000E+01    2.18300E+00    7.00600E-01
    1.20000E+01    2.20800E+00    6.13200E-01
    1.22000E+01    2.20000E+00    5.69900E-01
    1.24000E+01    2.21400E+00    5.17500E-01
    1.26000E+01    2.20200E+00    4.67900E-01
    1.28000E+01    2.18300E+00    4.26700E-01
    1.30000E+01    2.15600E+00    3.97700E-01
    1.34000E+01    2.10000E+00    3.74700E-01
    1.38000E+01    2.06800E+00    3.70500E-01
    1.45000E+01    2.03300E+00    3.66200E-01
    1.55000E+01    1.93000E+00    3.77500E-01
    1.65000E+01    1.88600E+00    5.01000E-01
    1.75000E+01    1.91100E+00    6.25200E-01
    1.85000E+01    2.00000E+00    7.10800E-01
    1.95000E+01    2.07900E+00    7.35700E-01
    2.05000E+01    2.15400E+00    7.67000E-01
    2.15000E+01    2.23800E+00    7.65900E-01
    2.30000E+01    2.33600E+00    7.34300E-01
    2.70000E+01    2.41500E+00    6.36600E-01
    3.00000E+01    2.45200E+00    6.58000E-01
    3.60000E+01    2.63200E+00    6.21600E-01
    5.20000E+01    2.75600E+00    4.47100E-01
    1.00000E+02    2.87000E+00    2.42400E-01
    2.40000E+02    2.90000E+00    1.02000E-01
    5.50000E+02    2.90500E+00    4.46200E-02
    1.00000E+03    2.90600E+00    2.45500E-02
    2.40000E+03    2.90600E+00    1.02400E-02
    5.50000E+03    2.90600E+00    4.47500E-03
    1.00000E+04    2.90700E+00    2.39200E-03

 ------------------------------------------------------------
  Optical constants for warm oxygen-deficient silicates.                          
  Data from Ossenkopf, Henning & Mathis, 1992, A&A, 261, 567.                     
  Range 0.4-10000 mic, 63 entries.               [ZI, Feb'96]                  
 ------------------------------------------------------------
     wavelength         n             k                                                 
      (micron)         (-)           (-)                                                
